position,density,pressure,specific_internal_energy,velocity,sound_speed
0.0,0.0002809411706844961,0.16757929233211669,1491.2311706025496,0.0,28.897914380408622
0.00025,0.0002887626413099217,0.16757929312958098,1460.9539436463297,0.0012104699614961666,28.58144482655842
0.0005,0.00029658411193534735,0.16757929392704524,1430.6767166901095,0.002420939922992333,28.26497527270822
0.00075,0.00030440558256077295,0.16757929472450953,1400.3994897338896,0.0036314098844884993,27.94850571885802
0.001,0.0003122270531861986,0.1675792955219738,1370.1222627776697,0.004841879845984666,27.63203616500782
0.00125,0.0003200485238116242,0.16757929631943808,1339.8450358214498,0.0060523498074808325,27.315566611157617
0.0015,0.0003278699944370498,0.16757929711690234,1309.5678088652296,0.007262819768976999,26.999097057307416
0.00175,0.00033569146506247545,0.16757929791436663,1279.2905819090097,0.008473289730473165,26.682627503457216
0.002,0.0003435129356879011,0.1675792987118309,1249.0133549527898,0.009683759691969333,26.366157949607015
0.0022500000000000003,0.0003513344063133267,0.16757929950929518,1218.7361279965698,0.010894229653465499,26.049688395756814
0.0025,0.0003591558769387523,0.16757930030675944,1188.4589010403497,0.012104699614961665,25.733218841906613
0.00275,0.00036697734756417795,0.16757930110422373,1158.1816740841298,0.013315169576457831,25.416749288056412
0.003,0.00037479881818960355,0.167579301901688,1127.9044471279099,0.014525639537953997,25.10027973420621
0.0032500000000000003,0.0003826202888150292,0.16757930269915228,1097.6272201716897,0.015736109499450167,24.783810180356006
0.0035,0.0004476641396627178,0.1675793144069744,1020.2780488999388,0.016898458375969514,23.734895149537472
0.00375,0.000541319180621538,0.16757933156997545,919.3929054704222,0.01803674671000045,22.319757380234762
0.004,0.0006349742215803583,0.16757934873297653,818.5077620409054,0.01917503504403139,20.904619610932055
0.00425,0.0007286292625391786,0.16757936589597758,717.6226186113886,0.02031332337806233,19.489481841629345
0.0045000000000000005,0.0008222843034979988,0.16757938305897863,616.7374751818718,0.02145161171209327,18.074344072326635
0.00475,0.0009159393444568189,0.1675794002219797,515.8523317523553,0.022589900046124205,16.659206303023932
0.005,0.0010095943854156392,0.16757941738498075,414.9671883228385,0.023728188380155144,15.244068533721222
0.00525,0.0011713684221447505,0.16757947363818332,382.81778767399885,0.02492884456497286,14.547438416547227
0.0055,0.0013331424588738613,0.1675795298913859,350.66838702515923,0.026129500749790573,13.850808299373234
0.00575,0.0014949164956029725,0.16757958614458848,318.51898637631956,0.027330156934608288,13.154178182199239
0.006,0.001656690532332084,0.16757964239779105,286.36958572747983,0.028530813119426006,12.457548065025245
0.00625,0.0018184645690611952,0.16757969865099362,254.22018507864016,0.02973146930424372,11.76091794785125
0.006500000000000001,0.0019802386057903064,0.1675797549041962,222.07078442980045,0.030932125489061435,11.064287830677255
0.00675,0.002166293914852841,0.167579837008146,196.3415546129067,0.032130189287325264,10.470619547688337
0.007,0.0024009117685822243,0.16757997081359025,183.45266645990455,0.033323068312481344,10.082874933069567
0.00725,0.0026355296223116074,0.1675801046190345,170.5637783069024,0.034515947337637416,9.695130318450797
0.0075,0.0028701474760409896,0.16758023842447875,157.67489015390032,0.03570882636279349,9.30738570383203
0.00775,0.0031047653297703727,0.167580372229923,144.78600200089818,0.03690170538794956,8.91964108921326
0.008,0.0033393831834997558,0.16758050603536725,131.89711384789604,0.038094584413105634,8.53189647459449
0.00825,0.003574001037229139,0.1675806398408115,119.0082256948939,0.03928746343826171,8.14415185997572
0.0085,0.0038633431203257103,0.16758086345683806,110.50977842838957,0.040479584823638545,7.851430795573033
0.00875,0.004180047318105876,0.16758113197815577,104.2065516051341,0.041671327389125754,7.606221506278388
0.009000000000000001,0.004496751515886041,0.16758140049947345,97.90332478187864,0.04286306995461296,7.361012216983743
0.00925,0.004813455713666204,0.16758166902079116,91.60009795862322,0.04405481252010017,7.115802927689099
0.0095,0.005130159911446369,0.16758193754210887,85.29687113536777,0.04524655508558738,6.870593638394453
0.00975,0.005446864109226534,0.16758220606342658,78.99364431211231,0.046438297651074587,6.625384349099808
0.01,0.0057635683070067,0.1675824745847443,72.69041748885685,0.0476300402165618,6.380175059805163
0.01025,0.006169215702444252,0.1675829533686798,69.20838105511655,0.04881858616877911,6.212710831282542
0.0105,0.0065748630978818045,0.1675834321526153,65.72634462137626,0.05000713212099643,6.045246602759921
0.010750000000000001,0.006980510493319356,0.1675839109365508,62.24430818763595,0.05119567807321374,5.8777823742373005
0.011,0.007386157888756906,0.1675843897204863,58.762271753895675,0.052384224025431046,5.71031814571468
0.01125,0.0077918052841944585,0.1675848685044218,55.28023532015538,0.05357276997764836,5.542853917192059
0.0115,0.00819745267963201,0.16758534728835733,51.79819888641508,0.05476131592986567,5.375389688669438
0.01175,0.008635810893302365,0.16758592979960993,48.77436133889228,0.055950761450735145,5.223265924527571
0.012,0.009139590743438326,0.16758671976549666,46.6669215638045,0.05714200610890894,5.101823089147213
0.01225,0.009643370593574285,0.16758750973138342,44.55948178871672,0.058333250767082734,4.980380253766853
0.0125,0.010147150443710246,0.16758829969727018,42.45204201362894,0.05952449542525653,4.858937418386494
0.012750000000000001,0.010650930293846207,0.16758908966315694,40.34460223854116,0.06071574008343032,4.737494583006135
0.013000000000000001,0.011154710143982168,0.1675898796290437,38.23716246345337,0.06190698474160412,4.616051747625775
0.01325,0.011658489994118124,0.16759066959493044,36.129722688365604,0.06309822939977791,4.494608912245417
0.0135,0.012231249852751628,0.16759174719598763,34.523915736537745,0.06428875757197229,4.393170949364455
0.01375,0.012838499715633903,0.16759296861463002,33.16892519633985,0.06547892750117697,4.301735422733191
0.014,0.013445749578516176,0.16759419003327242,31.813934656141956,0.06666909743038166,4.210299896101927
0.01425,0.01405299944139845,0.1675954114519148,30.45894411594406,0.06785926735958633,4.118864369470663
0.0145,0.014660249304280726,0.1675966328705572,29.103953575746168,0.06904943728879102,4.0274288428394
0.014750000000000001,0.015267499167163,0.1675978542891996,27.74896303554827,0.07023960721799571,3.935993316208136
0.015,0.015874749030045272,0.167599075707842,26.393972495350386,0.07142977714720038,3.844557789576873
0.01525,0.016592517162126442,0.16760087721292408,25.47720735329211,0.07262041422421275,3.773399374227188
0.0155,0.017310285294207615,0.16760267871800616,24.56044221123383,0.07381105130122513,3.702240958877503
0.01575,0.018028053426288784,0.16760448022308824,23.643677069175556,0.0750016883782375,3.631082543527818
0.016,0.018745821558369957,0.16760628172817033,22.726911927117282,0.07619232545524987,3.559924128178133
0.01625,0.019463589690451127,0.16760808323325244,21.810146785059004,0.07738296253226223,3.4887657128284477
0.0165,0.0201813578225323,0.16760988473833452,20.89338164300073,0.07857359960927461,3.417607297478763
0.01675,0.02093801525214388,0.16761193789644058,20.06715250662325,0.07976439268360241,3.3512380774477264
0.017,0.02177245127681628,0.16761449436059464,19.421995381607346,0.0809554977525611,3.294447248053986
0.01725,0.02260688730148868,0.1676170508247487,18.77683825659144,0.08214660282151977,3.237656418660246
0.0175,0.023441323326161077,0.16761960728890277,18.131681131575537,0.08333770789047845,3.180865589266506
0.017750000000000002,0.024275759350833478,0.1676221637530568,17.486524006559634,0.08452881295943712,3.124074759872766
0.018000000000000002,0.025110195375505878,0.16762472021721087,16.84136688154373,0.08571991802839579,3.0672839304790256
0.01825,0.025944631400178265,0.16762727668136493,16.196209756527836,0.08691102309735446,3.0104931010852862
0.0185,0.026860522187560555,0.16763047106172896,15.66870392950635,0.088102145031608,2.960729273256133
0.01875,0.02781714035629779,0.16763398440019794,15.200023751482071,0.08929327539850897,2.9144789462092726
0.019,0.028773758525035026,0.16763749773866696,14.731343573457792,0.09048440576540993,2.8682286191624127
0.01925,0.02973037669377226,0.16764101107713597,14.262663395433515,0.0916755361323109,2.8219782921155523
0.0195,0.030686994862509497,0.16764452441560498,13.793983217409236,0.09286666649921188,2.7757279650686923
0.01975,0.03164361303124673,0.167648037754074,13.32530303938496,0.09405779686611285,2.729477638021832
0.02,0.03260023119998397,0.167651551092543,12.85662286136068,0.09524892723301381,2.683227310974972
0.02025,0.033684533691737614,0.16765625309266433,12.506909257908566,0.09644004627892798,2.6449100790530813
0.0205,0.03476883618349126,0.16766095509278567,12.15719565445645,0.09763116532484216,2.606592847131191
0.02075,0.03585313867524491,0.16766565709290698,11.807482051004335,0.09882228437075632,2.5682756152093003
0.021,0.03693744116699855,0.1676703590930283,11.457768447552219,0.10001340341667049,2.52995838328741
0.02125,0.038021743658752195,0.1676750610931496,11.108054844100105,0.10120452246258466,2.4916411513655192
0.021500000000000002,0.03910604615050584,0.16767976309327096,10.75834124064799,0.10239564150849884,2.453323919443629
0.021750000000000002,0.040234847485403326,0.1676849496755455,10.436197551849542,0.10358690184942104,2.4170393292059242
0.022,0.04145264650658847,0.1676911054221266,10.169193692358432,0.10477844478035933,2.3848200223365916
0.02225,0.042670445527773625,0.16769726116870765,9.902189832867318,0.10596998771129762,2.3526007154672586
0.0225,0.04388824454895879,0.16770341691528873,9.635185973376204,0.10716153064223592,2.3203814085979255
0.02275,0.045106043570143944,0.1677095726618698,9.36818211388509,0.10835307357317422,2.288162101728592
0.023,0.0463238425913291,0.16771572840845086,9.101178254393977,0.10954461650411251,2.255942794859259
0.02325,0.047541641612514264,0.16772188415503195,8.834174394902863,0.11073615943505082,2.223723487989926
0.0235,0.04885207126834811,0.1677292071203856,8.60661458844,0.11192804074270961,2.194696904163191
0.02375,0.05020881624150631,0.1677371136951256,8.39877680849126,0.11312009123872864,2.167266681857755
0.024,0.051565561214664504,0.16774502026986554,8.190939028542521,0.11431214173474769,2.1398364595523187
0.02425,0.052922306187822704,0.16775292684460552,7.983101248593782,0.11550419223076672,2.112406237246883
0.0245,0.054279051160980904,0.1677608334193455,7.775263468645043,0.11669624272678576,2.084976014941447
0.02475,0.0556357961341391,0.16776873999408545,7.567425688696303,0.11788829322280481,2.057545792636011
0.025,0.0569925411072973,0.16777664656882543,7.359587908747564,0.11908034371882384,2.0301155703305747
0.02525,0.05849362287094448,0.1677866353659178,7.195074298865052,0.12027298830375314,2.006510435334984
0.025500000000000002,0.05999470463459166,0.16779662416301022,7.03056068898254,0.12146563288868245,1.9829053003393937
0.025750000000000002,0.06149578639823884,0.1678066129601026,6.866047079100029,0.12265827747361176,1.9593001653438031
0.026000000000000002,0.06299686816188602,0.16781660175719498,6.701533469217517,0.12385092205854106,1.9356950303482126
0.02625,0.06449794992553318,0.16782659055428736,6.5370198593350075,0.12504356664347036,1.9120898953526224
0.0265,0.06599903168918037,0.16783657935137977,6.3725062494524956,0.12623621122839968,1.8884847603570318
0.02675,0.06754992221093753,0.16784738384684794,6.218790562786998,0.12742901924862718,1.8659140838796253
0.027,0.06920043024891469,0.16785981973906772,6.08667072255553,0.12862215413945113,1.845412324438587
0.02725,0.07085093828689183,0.1678722556312875,5.954550882324062,0.12981528903027506,1.8249105649975483
0.0275,0.07250144632486899,0.16788469152350727,5.822431042092593,0.13100842392109902,1.80440880555651
0.02775,0.07415195436284613,0.16789712741572707,5.6903112018611255,0.13220155881192294,1.7839070461154716
0.028,0.07580246240082328,0.16790956330794685,5.558191361629657,0.1333946937027469,1.7634052866744332
0.02825,0.07745297043880044,0.16792199920016662,5.426071521398189,0.13458782859357082,1.7429035272333946
0.0285,0.07920706820522135,0.16793633883854922,5.310353196463293,0.13578162671942176,1.7240961445652927
0.02875,0.08101296083586415,0.16795163035001323,5.2028356291766835,0.13697575646278617,1.706135950283659
0.029,0.08281885346650696,0.16796692186147724,5.095318061890073,0.13816988620615062,1.6881757560020254
0.02925,0.08462474609714975,0.16798221337294125,4.987800494603464,0.13936401594951503,1.670215561720392
0.029500000000000002,0.08643063872779255,0.16799750488440526,4.880282927316855,0.14055814569287944,1.6522553674387583
0.029750000000000002,0.08823653135843534,0.16801279639586927,4.772765360030244,0.14175227543624389,1.6342951731571247
0.03,0.09004242398907812,0.16802808790733328,4.665247792743637,0.14294640517960827,1.6163349788754913
0.03025,0.09200902514699988,0.16804667739840148,4.576755947832426,0.14414150959832572,1.6004874840487011
0.0305,0.09397562630492162,0.16806526688946966,4.488264102921216,0.14533661401704315,1.584639989221911
0.03075,0.09594222746284338,0.16808385638053785,4.399772258010005,0.14653171843576057,1.5687924943951208
0.031,0.09790882862076514,0.16810244587160605,4.311280413098795,0.147726822854478,1.5529449995683309
0.03125,0.09987542977868688,0.16812103536267423,4.2227885681875845,0.14892192727319542,1.5370975047415407
0.0315,0.10184203093660864,0.16813962485374243,4.134296723276375,0.15011703169191287,1.5212500099147506
0.03175,0.1038641785311251,0.16815947614409293,4.050771995342479,0.15131255890471965,1.505992688230545
0.032,0.10599741899883103,0.16818185103300812,3.9771815013632117,0.1525089317057052,1.4919157128315086
0.03225,0.10813065946653695,0.16820422592192327,3.9035910073839446,0.15370530450669073,1.4778387374324724
0.0325,0.11026389993424288,0.16822660081083846,3.830000513404678,0.1549016773076763,1.463761762033436
0.03275,0.11239714040194879,0.1682489756997536,3.756410019425411,0.15609805010866185,1.4496847866343996
0.033,0.11453038086965471,0.16827135058866877,3.6828195254461438,0.15729442290964737,1.4356078112353634
0.03325,0.11666362133736063,0.16829372547758395,3.609229031466877,0.15849079571063293,1.421530835836327
0.0335,0.1189119052434611,0.16831897640905577,3.543523234208968,0.1596881286494164,1.4084531150952404
0.03375,0.12121771086875885,0.16834566536180595,3.481759785311738,0.16088594165709888,1.3958750216831284
0.034,0.1235235164940566,0.1683723543145561,3.4199963364145076,0.16208375466478134,1.3832969282710166
0.03425,0.12582932211935435,0.1683990432673063,3.3582328875172776,0.1632815676724638,1.3707188348589046
0.0345,0.1281351277446521,0.16842573222005644,3.2964694386200475,0.16447938068014625,1.3581407414467928
0.03475,0.13044093336994986,0.16845242117280662,3.2347059897228174,0.1656771936878287,1.3455626480346807
0.035,0.1327467389952476,0.16847911012555677,3.1729425408255874,0.16687500669551117,1.332984554622569
0.035250000000000004,0.13523159635631862,0.16851069066238814,3.1206672078631583,0.16807459308790307,1.3216845537514383
0.035500000000000004,0.13771645371738964,0.16854227119921947,3.068391874900729,0.169274179480295,1.3103845528803078
0.035750000000000004,0.14020131107846068,0.16857385173605083,3.0161165419383,0.1704737658726869,1.2990845520091772
0.036000000000000004,0.1426861684395317,0.1686054322728822,2.9638412089758703,0.1716733522650788,1.2877845511380464
0.03625,0.14517102580060265,0.16863701280971352,2.9115658760134426,0.17287293865747067,1.2764845502669162
0.0365,0.14765588316167366,0.16866859334654488,2.859290543051013,0.1740725250498626,1.2651845493957856
0.03675,0.1502026609528905,0.16870201257165068,2.8095799133725357,0.17527279388753345,1.254250795168493
0.037,0.15287327960439906,0.1687391091733054,2.764998690261962,0.17647442761576226,1.2440495342288767
0.03725,0.1555438982559076,0.1687762057749601,2.720417467151388,0.17767606134399108,1.2338482732892604
0.0375,0.15821451690741611,0.16881330237661482,2.6758362440408145,0.17887769507221987,1.223647012349644
0.03775,0.16088513555892464,0.16885039897826956,2.6312550209302406,0.1800793288004487,1.2134457514100276
0.038,0.1635557542104332,0.16888749557992427,2.586673797819667,0.1812809625286775,1.2032444904704112
0.03825,0.16622637286194172,0.168924592181579,2.542092574709093,0.1824825962569063,1.193043229530795
0.0385,0.1690257147425935,0.16896581835481406,2.501708671224723,0.1836858413656826,1.1834756221037113
0.03875,0.17188941823781695,0.16900910931383933,2.4634234275534554,0.18488989216473267,1.174224841432894
0.039,0.1747531217330404,0.16905240027286464,2.425138183882188,0.18609394296378273,1.1649740607620767
0.03925,0.1776168252282638,0.16909569123188992,2.3868529402109204,0.1872979937628328,1.1557232800912594
0.0395,0.18048052872348724,0.1691389821909152,2.3485676965396527,0.18850204456188285,1.1464724994204423
0.03975,0.18334423221871066,0.16918227314994047,2.310282452868385,0.1897060953609329,1.137221718749625
0.04,0.1862079357139341,0.16922556410896575,2.2719972091971172,0.19091014615998297,1.1279709380788077
0.04025,0.189272596103446,0.16927578311216723,2.2389088174636504,0.1921170023909479,1.119547620638974
0.0405,0.19233725649295788,0.16932600211536872,2.2058204257301837,0.19332385862191281,1.1111243031991405
0.04075,0.19540191688246977,0.1693762211185702,2.172732033996717,0.19453071485287776,1.1027009857593069
0.041,0.19846657727198166,0.16942644012177172,2.13964364226325,0.19573757108384268,1.094277668319473
0.04125,0.20153123766149356,0.1694766591249732,2.1065552505297833,0.1969444273148076,1.0858543508796394
0.0415,0.20459589805100545,0.16952687812817469,2.073466858796316,0.19815128354577252,1.0774310334398058
0.04175,0.20773039329392082,0.16957967090927176,2.041819669968829,0.1993592156733713,1.0692492159664606
0.042,0.21100455824364311,0.16963761124616003,2.013054886953301,0.2005692995942378,1.0615503984260926
0.04225,0.21427872319336538,0.16969555158304828,1.9842901039377725,0.20177938351510427,1.0538515808857243
0.0425,0.21755288814308768,0.16975349191993655,1.9555253209222443,0.20298946743597074,1.046152763345356
0.04275,0.22082705309280998,0.1698114322568248,1.926760537906716,0.20419955135683723,1.0384539458049877
0.043000000000000003,0.22410121804253225,0.16986937259371304,1.8979957548911879,0.2054096352777037,1.0307551282646195
0.043250000000000004,0.22737538299225454,0.16992731293060132,1.8692309718756597,0.2066197191985702,1.0230563107242514
0.043500000000000004,0.23079543455936893,0.16999097221607481,1.8428817973082476,0.20783225813429962,1.015782639170968
0.043750000000000004,0.23428842943517939,0.17005749097584097,1.817740426964894,0.20904602457746055,1.0087215406112269
0.044,0.23778142431098973,0.1701240097356071,1.7925990566215408,0.21025979102062142,1.001660442051486
0.04425,0.24127441918680018,0.17019052849537325,1.767457686278187,0.21147355746378232,0.9945993434917451
0.0445,0.24476741406261063,0.17025704725513938,1.7423163159348334,0.21268732390694323,0.987538244932004
0.04475,0.24826040893842108,0.1703235660149055,1.7171749455914795,0.21390109035010413,0.980477146372263
0.045,0.2517534038142315,0.17039008477467166,1.6920335752481257,0.21511485679326506,0.973416047812522
0.04525,0.25547554742722534,0.17046610966795536,1.669948820405653,0.2163328249585092,0.9669188858339869
0.0455,0.2591976910402191,0.1705421345612391,1.6478640655631804,0.21755079312375333,0.9604217238554518
0.04575,0.2629198346532129,0.1706181594545228,1.625779310720708,0.21876876128899747,0.9539245618769168
0.046,0.2666419782662067,0.17069418434780653,1.6036945558782354,0.2199867294542416,0.9474273998983817
0.04625,0.2703641218792005,0.17077020924109024,1.5816098010357627,0.22120469761948575,0.9409302379198466
